temperature,'voltage'

temperature,voltage
0.0,-0.849
5.0,-0.738
10.0,-0.537
15.0,-0.354
20.0,-0.196
25.0,-0.019
30.0,0.262
35.0,0.413
40.0,0.734
45.0,0.882
50.0,1.258
55.0,1.305
60.0,1.541
65.0,1.768
70.0,1.935
75.0,2.147
80.0,2.456
85.0,2.676
90.0,2.994
95.0,3.2
100.0,3.318
